use external trigger (y/n)? do reference run (y/n)? 
EIB firmware version: 63328110

using internal timer trigger
Start Reference Run Now


press Ctrl-C to stop

0260357212,197.945999
0260357312,197.873993
0260357412,197.802002
0260357512,197.729996
0260357612,197.675995
0260357712,197.604004
0260357812,197.531998
0260357912,197.460007
0260358012,197.388000
0260358112,197.315994
0260358212,197.244003
0260358312,197.171997
0260358412,197.100006
0260358512,197.046005
0260358612,196.973999
0260358712,196.901993
0260358812,196.830002
0260358912,196.757996
0260359012,196.686005
0260359112,196.613998
0260359212,196.542007
0260359312,196.470001
0260359412,196.397995
0260359512,196.326004
0260359612,196.272003
0260359712,196.199997
0260359812,196.128006
0260359912,196.056000
0260360012,195.983994
0260360112,195.912003
0260360212,195.839996
0260360312,195.768005
0260360412,195.695999
0260360512,195.623993
0260360612,195.552002
0260360712,195.498001
0260360812,195.425995
0260360912,195.354004
0260361012,195.281998
0260361112,195.210007
0260361212,195.138000
0260361312,195.065994
0260361412,194.994003
0260361512,194.921997
0260361612,194.850006
0260361712,194.778000
0260361812,194.705994
0260361912,194.651993
0260362012,194.580002
0260362112,194.507996
0260362212,194.436005
0260362312,194.363998
0260362412,194.292007
0260362512,194.220001
0260362612,194.147995
0260362712,194.093994
0260362812,194.022003
0260362912,193.949997
0260363012,193.878006
0260363112,193.806000
0260363212,193.733994
0260363312,193.662003
0260363412,193.589996
0260363512,193.518005
0260363612,193.445999
0260363712,193.391998
0260363812,193.320007
0260363912,193.248001
0260364012,193.175995
0260364112,193.104004
0260364212,193.031998
0260364312,192.960007
0260364412,192.888000
0260364512,192.815994
0260364612,192.744003
0260364712,192.671997
0260364812,192.617996
0260364912,192.546005
0260365012,192.473999
0260365112,192.401993
0260365212,192.348007
0260365312,192.311996
0260365412,192.294006
0260365512,192.294006
0260365612,192.294006
0260365712,192.294006
0260365812,192.294006
0260365912,192.311996
0260366012,192.330002
0260366112,192.384003
0260366212,192.438004
0260366312,192.509995
0260366412,192.563995
0260366512,192.636002
0260366612,192.707993
0260366712,192.761993
0260366812,192.834000
0260366912,192.906006
0260367012,192.977997
0260367112,193.050003
0260367212,193.121994
0260367312,193.194000
0260367412,193.248001
0260367512,193.320007
0260367612,193.391998
0260367712,193.464005
0260367812,193.535995
0260367912,193.608002
0260368012,193.679993
0260368112,193.751999
0260368212,193.824005
0260368312,193.895996
0260368412,193.968002
0260368512,194.022003
0260368612,194.093994
0260368712,194.166000
0260368812,194.238007
0260368912,194.309998
0260369012,194.382004
0260369112,194.453995
0260369212,194.526001
0260369312,194.598007
0260369412,194.669998
0260369512,194.723999
0260369612,194.796005
0260369712,194.867996
0260369812,194.940002
0260369912,195.011993
0260370012,195.084000
0260370112,195.156006
0260370212,195.227997
0260370312,195.300003
0260370412,195.371994
0260370512,195.425995
0260370612,195.498001
0260370712,195.570007
0260370812,195.641998
0260370912,195.714005
0260371012,195.785995
0260371112,195.858002
0260371212,195.929993
0260371312,196.001999
0260371412,196.074005
0260371512,196.145996
0260371612,196.218002
0260371712,196.272003
0260371812,196.343994
0260371912,196.416000
0260372012,196.488007
0260372112,196.559998
0260372212,196.632004
0260372312,196.703995
0260372412,196.776001
0260372512,196.848007
0260372612,196.919998
0260372712,196.992004
0260372812,197.046005
0260372912,197.117996
0260373012,197.190002
0260373112,197.261993
0260373212,197.334000
0260373312,197.406006
0260373412,197.477997
0260373512,197.550003
0260373612,197.621994
0260373712,197.694000
0260373812,197.766006
0260373912,197.820007
0260374012,197.891998
0260374112,197.964005
0260374212,198.035995
0260374312,198.108002
0260374412,198.179993
0260374512,198.251999
0260374612,198.324005
0260374712,198.395996
0260374812,198.468002
0260374912,198.539993
0260375012,198.593994
0260375112,198.666000
0260375212,198.738007
0260375312,198.809998
0260375412,198.882004
0260375512,198.953995
0260375612,199.026001
0260375712,199.098007
0260375812,199.169998
0260375912,199.242004
0260376012,199.296005
0260376112,199.367996
0260376212,199.440002
0260376312,199.511993
0260376412,199.584000
0260376512,199.656006
0260376612,199.727997
0260376712,199.800003
0260376812,199.871994
0260376912,199.944000
0260377012,200.016006
0260377112,200.087997
0260377212,200.160004
0260377312,200.214005
0260377412,200.285995
0260377512,200.358002
0260377612,200.429993
0260377712,200.501999
0260377812,200.574005
0260377912,200.645996
0260378012,200.718002
0260378112,200.789993
0260378212,200.862000
0260378312,200.934006
0260378412,200.988007
0260378512,201.059998
0260378612,201.132004
0260378712,201.203995
0260378812,201.276001
0260378912,201.348007
0260379012,201.419998
0260379112,201.492004
0260379212,201.563995
0260379312,201.636002
0260379412,201.690002
0260379512,201.761993
0260379612,201.834000
0260379712,201.906006
0260379812,201.977997
0260379912,202.050003
0260380012,202.121994
0260380112,202.194000
0260380212,202.266006
0260380312,202.337997
0260380412,202.391998
0260380512,202.445999
0260380612,202.481995
0260380712,202.500000
0260380812,202.500000
0260380912,202.500000
0260381012,202.500000
0260381112,202.500000
0260381212,202.500000
0260381312,202.500000
0260381412,202.500000
0260381512,202.500000
0260381612,202.500000
0260381712,202.500000
0260381812,202.500000
0260381912,202.500000
0260382012,202.500000
0260382112,202.500000
0260382212,202.500000
0260382312,202.500000
0260382412,202.500000
0260382512,202.500000
0260382612,202.500000
0260382712,202.500000
0260382812,202.500000
0260382912,202.500000
0260383012,202.500000
0260383112,202.500000
0260383212,202.500000
0260383312,202.500000
0260383412,202.500000
0260383512,202.500000
0260383612,202.500000
0260383712,202.500000
0260383812,202.518005
0260383912,202.554001
0260384012,202.608002
0260384112,202.679993
0260384212,202.787994
0260384312,202.895996
0260384412,202.985992
0260384512,203.093994
0260384612,203.201996
0260384712,203.309998
0260384812,203.417999
0260384912,203.526001
0260385012,203.634003
0260385112,203.723999
0260385212,203.832001
0260385312,203.940002
0260385412,204.048004
0260385512,204.156006
0260385612,204.264008
0260385712,204.371994
0260385812,204.462006
0260385912,204.570007
0260386012,204.677994
0260386112,204.785995
0260386212,204.893997
0260386312,205.001999
0260386412,205.110001
0260386512,205.199997
0260386612,205.307999
0260386712,205.416000
0260386812,205.524002
0260386912,205.632004
0260387012,205.740005
0260387112,205.848007
0260387212,205.938004
0260387312,206.046005
0260387412,206.154007
0260387512,206.261993
0260387612,206.369995
0260387712,206.477997
0260387812,206.585999
0260387912,206.675995
0260388012,206.783997
0260388112,206.891998
0260388212,207.000000
0260388312,207.108002
0260388412,207.216003
0260388512,207.324005
0260388612,207.414001
0260388712,207.522003
0260388812,207.630005
0260388912,207.738007
0260389012,207.845993
0260389112,207.953995
0260389212,208.061996
0260389312,208.151993
0260389412,208.259995
0260389512,208.367996
0260389612,208.475998
0260389712,208.584000
0260389812,208.692001
0260389912,208.800003
0260390012,208.889999
0260390112,208.998001
0260390212,209.106003
0260390312,209.214005
0260390412,209.322006
0260390512,209.429993
0260390612,209.537994
0260390712,209.628006
0260390812,209.735992
0260390912,209.843994
0260391012,209.951996
0260391112,210.059998
0260391212,210.167999
0260391312,210.276001
0260391412,210.384003
0260391512,210.473999
0260391612,210.582001
0260391712,210.690002
0260391812,210.798004
0260391912,210.906006
0260392012,211.014008
0260392112,211.121994
0260392212,211.212006
0260392312,211.320007
0260392412,211.427994
0260392512,211.535995
0260392612,211.643997
0260392712,211.751999
0260392812,211.860001
0260392912,211.949997
0260393012,212.057999
0260393112,212.166000
0260393212,212.274002
0260393312,212.382004
0260393412,212.490005
0260393512,212.598007
0260393612,212.688004
0260393712,212.796005
0260393812,212.904007
0260393912,213.011993
0260394012,213.119995
0260394112,213.227997
0260394212,213.335999
0260394312,213.425995
0260394412,213.533997
0260394512,213.641998
0260394612,213.750000
0260394712,213.858002
0260394812,213.966003
0260394912,214.074005
0260395012,214.164001
0260395112,214.272003
0260395212,214.380005
0260395312,214.488007
0260395412,214.595993
0260395512,214.703995
0260395612,214.811996
0260395712,214.901993
0260395812,215.009995
0260395912,215.117996
0260396012,215.225998
0260396112,215.334000
0260396212,215.442001
0260396312,215.550003
0260396412,215.639999
0260396512,215.748001
0260396612,215.856003
0260396712,215.964005
0260396812,216.072006
0260396912,216.179993
0260397012,216.287994
0260397112,216.378006
0260397212,216.485992
0260397312,216.593994
0260397412,216.701996
0260397512,216.809998
0260397612,216.917999
0260397712,217.026001
0260397812,217.115997
0260397912,217.223999
0260398012,217.332001
0260398112,217.440002
0260398212,217.548004
0260398312,217.656006
0260398412,217.764008
0260398512,217.854004
0260398612,217.962006
0260398712,218.070007
0260398812,218.177994
0260398912,218.285995
0260399012,218.393997
0260399112,218.501999
0260399212,218.610001
0260399312,218.699997
0260399412,218.807999
0260399512,218.916000
0260399612,219.024002
0260399712,219.132004
0260399812,219.240005
0260399912,219.330002
0260400012,219.438004
0260400112,219.546005
0260400212,219.654007
0260400312,219.761993
0260400412,219.869995
0260400512,219.977997
0260400612,220.067993
0260400712,220.175995
0260400812,220.283997
0260400912,220.391998
0260401012,220.500000
0260401112,220.608002
0260401212,220.716003
0260401312,220.806000
0260401412,220.914001
0260401512,221.022003
0260401612,221.130005
0260401712,221.238007
0260401812,221.345993
0260401912,221.453995
0260402012,221.544006
0260402112,221.634003
0260402212,221.688004
0260402312,221.723999
0260402412,221.742004
0260402512,221.742004
0260402612,221.742004
0260402712,221.742004
0260402812,221.742004
0260402912,221.742004
0260403012,221.742004
0260403112,221.742004
0260403212,221.742004
0260403312,221.742004
0260403412,221.742004
0260403512,221.742004
0260403612,221.742004
0260403712,221.742004
0260403812,221.742004
0260403912,221.742004
0260404012,221.742004
0260404112,221.742004
0260404212,221.742004
0260404312,221.742004
0260404412,221.742004
0260404512,221.742004
0260404612,221.742004
0260404712,221.742004
0260404812,221.742004
0260404912,221.742004
0260405012,221.742004
0260405112,221.742004
0260405212,221.742004
0260405312,221.742004
0260405412,221.742004
0260405512,221.742004
0260405612,221.742004
0260405712,221.723999
0260405812,221.723999
0260405912,221.723999
0260406012,221.723999
0260406112,221.723999
0260406212,221.705994
0260406312,221.705994
0260406412,221.705994
0260406512,221.705994
0260406612,221.705994
0260406712,221.688004
0260406812,221.688004
0260406912,221.688004
0260407012,221.688004
0260407112,221.669998
0260407212,221.669998
0260407312,221.669998
0260407412,221.651993
0260407512,221.651993
0260407612,221.651993
0260407712,221.634003
0260407812,221.634003
0260407912,221.634003
0260408012,221.634003
0260408112,221.615997
0260408212,221.615997
0260408312,221.615997
0260408412,221.598007
0260408512,221.598007
0260408612,221.580002
0260408712,221.580002
0260408812,221.580002
0260408912,221.561996
0260409012,221.561996
0260409112,221.561996
0260409212,221.544006
0260409312,221.544006
0260409412,221.526001
0260409512,221.526001
0260409612,221.526001
0260409712,221.507996
0260409812,221.507996
0260409912,221.507996
0260410012,221.490005
0260410112,221.490005
0260410212,221.472000
0260410312,221.472000
0260410412,221.472000
0260410512,221.453995
0260410612,221.453995
0260410712,221.453995
0260410812,221.436005
0260410912,221.436005
0260411012,221.417999
0260411112,221.417999
0260411212,221.417999
0260411312,221.399994
0260411412,221.399994
0260411512,221.382004
0260411612,221.382004
0260411712,221.382004
0260411812,221.363998
0260411912,221.363998
0260412012,221.363998
0260412112,221.345993
0260412212,221.345993
0260412312,221.328003
0260412412,221.328003
0260412512,221.328003
0260412612,221.309998
0260412712,221.309998
0260412812,221.292007
0260412912,221.292007
0260413012,221.292007
0260413112,221.274002
0260413212,221.274002
0260413312,221.274002
0260413412,221.255997
0260413512,221.255997
0260413612,221.238007
0260413712,221.238007
0260413812,221.238007
0260413912,221.220001
0260414012,221.220001
0260414112,221.201996
0260414212,221.201996
0260414312,221.201996
0260414412,221.184006
0260414512,221.184006
0260414612,221.184006
0260414712,221.166000
0260414812,221.166000
0260414912,221.147995
0260415012,221.147995
0260415112,221.147995
0260415212,221.130005
0260415312,221.130005
0260415412,221.112000
0260415512,221.112000
0260415612,221.112000
0260415712,221.093994
0260415812,221.093994
0260415912,221.093994
0260416012,221.076004
0260416112,221.076004
0260416212,221.057999
0260416312,221.057999
0260416412,221.057999
0260416512,221.039993
0260416612,221.039993
0260416712,221.022003
0260416812,221.022003
0260416912,221.022003
0260417012,221.003998
0260417112,221.003998
0260417212,221.003998
0260417312,220.985992
0260417412,220.985992
0260417512,220.968002
0260417612,220.968002
0260417712,220.968002
0260417812,220.949997
0260417912,220.949997
0260418012,220.932007
0260418112,220.932007
0260418212,220.932007
0260418312,220.914001
0260418412,220.914001
0260418512,220.914001
0260418612,220.895996
0260418712,220.895996
0260418812,220.878006
0260418912,220.878006
0260419012,220.878006
0260419112,220.860001
0260419212,220.860001
0260419312,220.841995
0260419412,220.841995
0260419512,220.841995
0260419612,220.824005
0260419712,220.824005
0260419812,220.806000
0260419912,220.806000
0260420012,220.806000
0260420112,220.787994
0260420212,220.787994
0260420312,220.787994
0260420412,220.770004
0260420512,220.770004
0260420612,220.751999
0260420712,220.751999
0260420812,220.751999
0260420912,220.733994
0260421012,220.733994
0260421112,220.716003
0260421212,220.716003
0260421312,220.716003
0260421412,220.697998
0260421512,220.697998
0260421612,220.679993
0260421712,220.679993
0260421812,220.679993
0260421912,220.662003
0260422012,220.662003
0260422112,220.643997
0260422212,220.643997
0260422312,220.643997
0260422412,220.626007
0260422512,220.626007
0260422612,220.608002
0260422712,220.608002
0260422812,220.608002
0260422912,220.589996
0260423012,220.589996
0260423112,220.589996
0260423212,220.572006
0260423312,220.572006
0260423412,220.554001
0260423512,220.554001
0260423612,220.554001
0260423712,220.535995
0260423812,220.535995
0260423912,220.518005
0260424012,220.518005
0260424112,220.518005
0260424212,220.500000
0260424312,220.500000
0260424412,220.481995
0260424512,220.481995
0260424612,220.481995
0260424712,220.464005
0260424812,220.464005
0260424912,220.464005
0260425012,220.445999
0260425112,220.445999
0260425212,220.427994
0260425312,220.427994
0260425412,220.427994
0260425512,220.410004
0260425612,220.410004
0260425712,220.391998
0260425812,220.391998
0260425912,220.391998
0260426012,220.373993
0260426112,220.373993
0260426212,220.373993
0260426312,220.356003
0260426412,220.356003
0260426512,220.356003
0260426612,220.356003
0260426712,220.356003
0260426812,220.356003
0260426912,220.356003
0260427012,220.356003
0260427112,220.356003
0260427212,220.356003
0260427312,220.356003
0260427412,220.356003
0260427512,220.356003
0260427612,220.356003
0260427712,220.356003
0260427812,220.356003
0260427912,220.356003
0260428012,220.356003
0260428112,220.356003
0260428212,220.356003
0260428312,220.356003
0260428412,220.356003
0260428512,220.356003
0260428612,220.356003
0260428712,220.356003
0260428812,220.356003
0260428912,220.356003
0260429012,220.356003
0260429112,220.356003
0260429212,220.356003
0260429312,220.356003
0260429412,220.356003
0260429512,220.356003
0260429612,220.356003
0260429712,220.356003
0260429812,220.356003
0260429912,220.337997
0260430012,220.302002
0260430112,220.229996
0260430212,220.175995
0260430312,220.104004
0260430412,220.031998
0260430512,219.960007
0260430612,219.888000
0260430712,219.815994
0260430812,219.744003
0260430912,219.690002
0260431012,219.617996
0260431112,219.546005
0260431212,219.473999
0260431312,219.401993
0260431412,219.330002
0260431512,219.257996
0260431612,219.186005
0260431712,219.113998
0260431812,219.059998
0260431912,218.988007
0260432012,218.916000
0260432112,218.843994
0260432212,218.772003
0260432312,218.699997
0260432412,218.628006
0260432512,218.556000
0260432612,218.483994
0260432712,218.412003
0260432812,218.339996
0260432912,218.285995
0260433012,218.214005
0260433112,218.141998
0260433212,218.070007
0260433312,217.998001
0260433412,217.925995
0260433512,217.854004
0260433612,217.781998
0260433712,217.710007
0260433812,217.638000
0260433912,217.584000
0260434012,217.511993
0260434112,217.440002
0260434212,217.367996
0260434312,217.296005
0260434412,217.223999
0260434512,217.151993
0260434612,217.080002
0260434712,217.007996
0260434812,216.936005
0260434912,216.863998
0260435012,216.809998
0260435112,216.738007
0260435212,216.666000
0260435312,216.593994
0260435412,216.522003
0260435512,216.449997
0260435612,216.378006
0260435712,216.306000
0260435812,216.233994
0260435912,216.162003
0260436012,216.089996
0260436112,216.035995
0260436212,215.964005
0260436312,215.891998
0260436412,215.820007
0260436512,215.748001
0260436612,215.675995
0260436712,215.604004
0260436812,215.531998
0260436912,215.477997
0260437012,215.406006
0260437112,215.334000
0260437212,215.261993
0260437312,215.190002
0260437412,215.117996
0260437512,215.046005
0260437612,214.973999
0260437712,214.901993
0260437812,214.848007
0260437912,214.776001
0260438012,214.703995
0260438112,214.632004
0260438212,214.559998
0260438312,214.488007
0260438412,214.416000
0260438512,214.343994
0260438612,214.272003
0260438712,214.199997
0260438812,214.145996
0260438912,214.074005
0260439012,214.001999
0260439112,213.929993
0260439212,213.858002
0260439312,213.785995
0260439412,213.714005
0260439512,213.641998
0260439612,213.570007
0260439712,213.498001
0260439812,213.425995
0260439912,213.371994
0260440012,213.300003
0260440112,213.227997
0260440212,213.156006
0260440312,213.084000
0260440412,213.011993
0260440512,212.940002
0260440612,212.867996
0260440712,212.796005
0260440812,212.723999
0260440912,212.651993
0260441012,212.580002
0260441112,212.526001
0260441212,212.453995
0260441312,212.382004
0260441412,212.309998
0260441512,212.238007
0260441612,212.166000
0260441712,212.093994
0260441812,212.022003
0260441912,211.968002
0260442012,211.895996
0260442112,211.824005
0260442212,211.751999
0260442312,211.679993
0260442412,211.608002
0260442512,211.535995
0260442612,211.464005
0260442712,211.391998
0260442812,211.337997
0260442912,211.266006
0260443012,211.194000
0260443112,211.121994
0260443212,211.050003
0260443312,210.977997
0260443412,210.906006
0260443512,210.834000
0260443612,210.761993
0260443712,210.690002
0260443812,210.636002
0260443912,210.563995
0260444012,210.492004
0260444112,210.419998
0260444212,210.348007
0260444312,210.276001
0260444412,210.203995
0260444512,210.132004
0260444612,210.059998
0260444712,209.988007
0260444812,209.916000
0260444912,209.843994
0260445012,209.789993
0260445112,209.718002
0260445212,209.645996
0260445312,209.574005
0260445412,209.501999
0260445512,209.429993
0260445612,209.358002
0260445712,209.285995
0260445812,209.214005
0260445912,209.141998
0260446012,209.070007
0260446112,209.016006
0260446212,208.944000
0260446312,208.871994
0260446412,208.800003
0260446512,208.727997
0260446612,208.656006
0260446712,208.584000
0260446812,208.511993
0260446912,208.440002
0260447012,208.386002
0260447112,208.313995
0260447212,208.242004
